time,x_pos,x_dot,theta,theta_dot,input_u
0.0,0.0,0.0,0.0,0.0,0.5
0.02,8.95862479637934e-05,0.0085676126216015,-0.0002690309540830373,-0.02575670842077295,0.37987798516309557
0.04,0.00032771330129434666,0.014887164521259866,-0.0009872882024738057,-0.045065811733106406,0.26930711982843974
0.06,0.0006714589212206608,0.01916499378291617,-0.0020343330144617913,-0.058774232175876046,0.16940202224915352
0.08,0.0010821466847366124,0.02161797470668794,-0.003306347623303762,-0.06769460018520396,0.08057172693259909
0.1,0.0015254781088519592,0.022465886158324955,-0.004715309208773466,-0.07259190570346248,0.002862497972818531
0.12,0.001971527154342092,0.021925290682274976,-0.006187937228283708,-0.07417412261034556,-0.06396825305183812
0.14,0.002394626053757221,0.020204761259553058,-0.0076644879401900675,-0.07308620888823891,-0.12038609347689724
0.16,0.002773167824133543,0.017501296650572106,-0.009097458084934795,-0.06990693424691118,-0.16702173083361177
0.18,0.0030893476679194117,0.013997769314585875,-0.010450249140256813,-0.06514802937955401,-0.204620999476523
0.2,0.003328862404143128,0.009861256240442807,-0.011695833909119716,-0.05925519739918195,-0.23400230961226343
0.22,0.0034805841630334918,0.005242111816686818,-0.012815458491461085,-0.052610576331023354,-0.2560210832796856
0.24,0.003536221862694834,0.0002736523840221206,-0.013797404955570138,-0.04553629019358748,-0.2715406245852214
0.26,0.0034899814940832366,-0.004927666271247785,-0.014635833255027672,-0.038298773896422236,-0.28140882415037116
0.28,0.0033382339870794576,-0.010261685028077146,-0.01532971510299811,-0.031113602915847065,-0.286440075278566
0.3,0.003079197423099309,-0.015643685341421645,-0.015881867570170228,-0.024150601737346376,-0.28740177720424076
0.32,0.0027126385979375613,-0.02100332298761647,-0.016298090056124204,-0.0175390448531436,-0.28500481479620127
0.34,0.0022395974158441675,-0.026283421973861812,-0.016586404928193306,-0.011372800343269679,-0.2798974305522223
0.36,0.0016621363009663437,-0.03143868789161223,-0.016756399453807136,-0.005715298574112949,-0.27266194039692554
0.38,0.0009831157306343006,-0.036434389741698,-0.01681866459653256,-0.000604237275880614,-0.2638137868755321
0.4,0.0002059961095662317,-0.041245049897363904,-0.016784324727450374,0.003944040730340187,-0.25380246943707985
0.42,-0.000665334503460545,-0.045853173451135015,-0.01666465124905053,0.007930539453039669,-0.24301393962999054
0.44,-0.00162670785362702,-0.05024804072930464,-0.016470752468888194,0.01136999553839202,-0.23177409755994816
0.46,-0.00267379957890408,-0.05442458024310655,-0.016213331729703292,0.014287667279430932,-0.2203530735820548
0.48,-0.0038022316637192385,-0.058382333745906685,-0.015902505741656574,0.01671652407034763,-0.20897002490595337
0.5,-0.005007655176135649,-0.062124520332347694,-0.015547675216494337,0.01869482404968148,-0.19779821983120047
0.52,-0.006285815305376316,-0.06565720258791542,-0.015157440224371915,0.020264060451802048,-0.1869702221708617
0.54,-0.007632600743629126,-0.06898855460772298,-0.014739553139132878,0.021467251947934373,-0.17658302472442397
0.56,-0.009044079426152462,-0.07212822917883348,-0.014300902570150044,0.022347548726412963,-0.1667030132463532
0.58,-0.010516522569329197,-0.07508681948688534,-0.013847522266928975,0.02294712397222128,-0.15737067117450249
0.6,-0.012046418838566653,-0.07787540929138109,-0.013384619600210165,0.02330631951208649,-0.1486049604886112
0.62,-0.013630480346434977,-0.08050520454326515,-0.012916618848653822,0.02346301446825289,-0.1404073356006959
0.64,-0.015265642034404127,-0.08298723882545424,-0.012447215136005713,0.023452186608582833,-0.13276536533505667
0.66,-0.016949055835893623,-0.08533214471846653,-0.011979435456410812,0.02330563751259386,-0.12565595307842245
0.68,-0.018678080859788546,-0.08754998317110048,-0.011515703785128756,0.023051854534753505,-0.11904815734155175
0.7000000000000001,-0.0204502706766914,-0.08965012313770858,-0.011057907791110114,0.02271598470198828,-0.11290562455931656
0.72,-0.022263358638570634,-0.09164116408222357,-0.010607465142021301,0.022319898016830583,-0.10718865325918442
0.74,-0.02411524201885365,-0.09353089440368334,-0.010165387818770289,0.021882320055175795,-0.1018559140372366
0.76,-0.026003965626350562,-0.09532627937311496,-0.009732343234531829,0.02141901617024375,-0.09686585337579924
0.78,-0.027927705423985816,-0.0970334727571415,-0.009308711283243109,0.020943011980054237,-0.0921778114820725
0.8,-0.029884752572905668,-0.09865784691440421,-0.008894636726176422,0.020464837076824546,-0.08775288526911548
0.8200000000000001,-0.03187349822441224,-0.10020403676626363,-0.00849007656495801,0.019992781017980164,-0.08355456756470415
0.84,-0.0338924192962713,-0.1016759936468194,-0.008094842248348735,0.01953315261554547,-0.07954919282337171
0.86,-0.03594006539588188,-0.10307704561633024,-0.007708636721682921,0.01909053531834018,-0.07570621821310697
0.88,-0.03801504698999051,-0.10440996136714359,-0.007331086455751843,0.01866803307210129,-0.07199836710899665
0.9,-0.040116024868331025,-0.10567701535559555,-0.006961768689879484,0.018267502445098015,-0.0684016598879704
0.92,-0.042241700905911186,-0.10688005225275574,-0.006600234195705422,0.017889768024725614,-0.06489535459742797
0.9400000000000001,-0.04439081009472691,-0.108020549219122,-0.006246025917383278,0.017534819131542582,-0.06146181766224633
0.96,-0.046562113789510834,-0.10909967487282195,-0.00589869387396129,0.017201986771720596,-0.0580863423780303
0.98,-0.04875439409276448,-0.11011834413828017,-0.005557806723841522,0.016890100469394348,-0.054756930576003233
1.0,-0.05096644929085684,-0.11107726843442624,-0.005222960392359757,0.016597625200700745,-0.05146405058482935
1.02,-0.053197090244516576,-0.11197700089088178,-0.004893784154349459,0.016322779105831173,-0.04820038249255121
1.04,-0.055445137632773894,-0.11281797647026472,-0.004569944546419867,0.016063632998803246,-0.044960559752509587
1.06,-0.05770941994856288,-0.1136005470282265,-0.004251147460668368,0.01581819294127541,-0.04174091439614634
1.08,-0.05998877214608806,-0.11432501146373655,-0.003937138744456926,0.015584467310418015,-0.03853923152082368
1.1,-0.06228203484407412,-0.11499164120415611,-0.003627703601237754,0.015360519884677418,-0.035354517313771004
1.12,-0.06458805399461594,-0.11560070133646254,-0.003322665056489329,0.01514451050733559,-0.032186783650492594
1.1400000000000001,-0.06690568093405817,-0.11615246774113973,-0.0030218817216629778,0.014934724877132531,-0.029036851260031554
1.16,-0.06923377273975999,-0.11664724061208794,-0.0027252450584752284,0.01472959496782244,-0.025906172570059716
1.18,-0.0715711928244072,-0.11708535475754889,-0.002432676316557425,0.014527711503182892,-0.02279667461948722
1.2,-0.07391681170744473,-0.11746718707634182,-0.0021441232898719914,0.014327829818374315,-0.019710621841469225
1.22,-0.07626950791099874,-0.11779316159323729,-0.0018595570117617571,0.014128870329257949,-0.016650498060943316
1.24,-0.07862816893516453,-0.11806375241934562,-0.0015789684852311344,0.013929914713903894,-0.013618906703594514
1.26,-0.08099169227462792,-0.11827948497996522,-0.001302365524179211,0.01373019878968319,-0.010618487963043929
1.28,-0.08335898644516947,-0.11844093582514768,-0.0010297697628455951,0.01352910294879558,-0.007651851506268822
1.3,-0.08572897199461368,-0.11854873130875378,-0.0007612138746531116,0.013326140897807837,-0.0047215232007252386
1.32,-0.08810058247819705,-0.11860354539121355,-0.0004967390278481219,0.013120947335039525,-0.001829904308233925
1.34,-0.09047276538312464,-0.11860609679055523,-0.00023639259372096587,0.012913265095096688,0.0010207584006619369
1.36,-0.09284448299127629,-0.11855714567632306,1.9773886420418446e-05,0.012702932193656908,0.0038283931124236106
1.3800000000000001,-0.09521471317262628,-0.11845749007236782,0.00027170647712562913,0.012489869118443343,0.0065911154428840895
1.4000000000000001,-0.09758245010498798,-0.11830796210761692,0.0005193503752525556,0.0122740666345126,0.00930723424827282
1.42,-0.09994670491822578,-0.11810942422912349,0.0007626511993832183,0.012055574303541245,0.0119752519984573
1.44,-0.10230650626313302,-0.11786276546915239,0.001001556057980031,0.011834489857508578,0.01459386081920471
1.46,-0.10466090080680393,-0.11756889783788163,0.0012360144143461623,0.011610949516634165,0.017161935189860363
1.48,-0.10700895365757758,-0.11722875289549974,0.0014659787678144539,0.01138511929909674,0.01967852216257139
1.5,-0.10934974872354877,-0.1168432785420162,0.0016914051711801308,0.011157187335301536,0.02214282985204842
1.52,-0.11168238900927124,-0.11641343604988005,0.0019122536043582568,0.010927357171581014,0.024554214833149263
1.54,-0.114005996855666,-0.115940197353387,0.0021284882237176507,0.010695842026486964,0.02691216897898008
1.56,-0.11631971412833247,-0.11542454259969384,0.002340077505634686,0.010462859946530971,0.02921630617588502
1.58,-0.11862270235948016,-0.11486745795887347,0.0025469943016243777,0.010228629796641821,0.03146634926436015
1.6,-0.12091414284858583,-0.11426993368465414,0.0027492158210297756,0.009993368013047697,0.03366211747689943
1.62,-0.12319323672666949,-0.11363296241310705,0.002946723555757918,0.009757286042114151,0.035803514575109836
1.6400000000000001,-0.12545920498879307,-0.11295753768339474,0.0031395031600031874,0.00952058838727986,0.03789051782890175
1.6600000000000001,-0.12771128849904614,-0.11224465266259424,0.003327544296346954,0.00928347118708856,0.039923167929764726
1.68,-0.12994874797190947,-0.11149529905539814,0.003510840458105999,0.009046121249931071,0.04190155988756874
1.7,-0.1321708639334974,-0.11071046617901946,0.0036893887763520205,0.008808715475055087,0.043825834925326324
1.72,-0.13437693666578707,-0.1098911401837437,0.0038631898186633333,0.00857142059429918,0.04569617335824643
1.74,-0.13656628613655644,-0.109038303400156,0.0040322473854135735,0.00833439317453912,0.04751278842147509
1.76,-0.13873825191738234,-0.10815293379501265,0.004196568308260452,0.00809777982672986,0.0492759209944213
1.78,-0.14089219309170095,-0.1072360045189259,0.004356162254475589,0.007861717573461319,0.05098583515780886
1.8,-0.14302748815461033,-0.1062884835304057,0.004511041539854956,0.007626334332939694,0.05264281451187671
1.82,-0.14514353490579934,-0.10531133328228022,0.004661220952166175,0.007391749483116725,0.0542471591798388
1.84,-0.1472397503367239,-0.10430551045804129,0.004806717586419151,0.007158074475208139,0.05579918341921215
1.86,-0.1493155705129169,-0.10327196574718123,0.004947550692683477,0.006925413470991764,0.05729921376437151
1.8800000000000001,-0.15137045045211492,-0.10221164365006886,0.005083741536711867,0.006693863983002178,0.05874758762622908
1.9000000000000001,-0.15340386399870964,-0.10112548230432354,0.005215313273254714,0.006463517501010855,0.060144652278807734
1.92,-0.15541530369488463,-0.10001441332596692,0.005342290831657456,0.006234460091985786,0.061490764167322326
1.94,-0.15740428064867623,-0.09887936165984752,0.0054647008131105046,0.006006772964062707,0.0627862884778722
1.96,-0.1593703243990981,-0.09772124543493567,0.00558257139876167,0.005780532987945113,0.06403159891471007
1.98,-0.16131298277839087,-0.09654097582106883,0.005695932267794634,0.005555813171602219,0.06522707763706463
2.0,-0.16323182293453578,-0.09543834319684888,0.0058048180137825825,0.00562934170988252,-0.11144556049829554
2.02,-0.16530737748199917,-0.1113302471159026,0.006452662541852464,0.0568585688357692,-0.6906498187350603
2.04,-0.16765492263219348,-0.1227056016576856,0.007993236358706609,0.09519417131394962,-0.46855638891007473
2.06,-0.170188264691632,-0.1299811514816613,0.010185838395535995,0.12233887535410183,-0.26786246466651725
2.08,-0.17282973318980266,-0.13359158707271812,0.01282303894924767,0.13991756679424885,-0.08937867696117037
2.1,-0.17551043155390952,-0.13397732863844466,0.015728989443353242,0.1494597308269214,0.06680876236868034
2.12,-0.1781702246782453,-0.13157229906365098,0.018757315091343853,0.15238073926653023,0.2011903113719472
2.14,-0.18075750942001786,-0.1267943904893791,0.02178870265232676,0.14996988332861186,0.314701445691586
2.16,-0.1832288187092586,-0.12003830640870919,0.02472830709517672,0.14338405578896887,0.40860708026304743
2.18,-0.18554830364723252,-0.11167046731393049,0.027503079897518695,0.13364607133748121,0.4844016425493131
2.2,-0.18768713184613414,-0.10202568064559034,0.030059102400458896,0.12164670672530845,0.5437240687242416
2.22,-0.1896228344470744,-0.09140529340223627,0.03235899023503815,0.10814963896862403,0.5882867698106136
2.24,-0.1913386288263559,-0.08007656681418988,0.03437941937600879,0.09379855718211619,0.6198174608201253
2.2600000000000002,-0.1928227390177655,-0.06827303572447058,0.03610881084880538,0.07912581899019719,0.6400126517102692
2.2800000000000002,-0.19406773137427175,-0.056195639715873075,0.03754519945689228,0.06456211390537958,0.6505015544676898
2.3000000000000003,-0.19506987898039918,-0.044014437722192656,0.0386943020147154,0.05044668208649955,0.6528191566687073
2.32,-0.19582856480561436,-0.03187074217973532,0.0395677923467999,0.03703771645314808,0.6483872401573415
2.34,-0.19634573054612076,-0.019879532179826666,0.040181783609720495,0.024522648573676798,0.6385021766283845
2.36,-0.1966253755150467,-0.008132027174648058,0.040555513164326755,0.013028083715839063,0.6243284034229512
2.38,-0.19667310777985023,0.0033016767163031317,0.04071022112009028,0.002629207864478914,0.6068965671324213
2.4,-0.19649574797692307,0.01436998703823019,0.040668210641528195,-0.006641460509210436,0.5871054148993058
2.42,-0.19610098482008365,0.025037274380119042,0.040452076002240885,-0.01478605831453057,0.5657266096214957
2.44,-0.1954970802238098,0.035281458295294166,0.04008408305600556,-0.021834153652117622,0.5434117423533602
2.46,-0.19469262114548563,0.04509175423820244,0.03958568613641641,-0.02783632805469675,0.5207009104523833
2.48,-0.19369631467631798,0.05446660480210013,0.038977165276990994,-0.03285855953341825,0.49803232142706344
2.5,-0.19251682254225733,0.06341180908430752,0.03827736795397064,-0.036977381830284144,0.475752468498968
2.52,-0.19116263098076786,0.07193885615887949,0.03750354019739051,-0.040275780850768675,0.4541265035426795
2.54,-0.1896419519057529,0.08006346226455752,0.03667123280722446,-0.042839778793777476,0.43334850563573585
2.56,-0.18796265133330065,0.08780430627351149,0.03579426947676573,-0.044755649449432014,0.4135514085781878
2.58,-0.18613220119006338,0.09518195414507298,0.03488476480202945,-0.04610770396969588,0.3948164083314457
2.6,-0.1841576508418769,0.10221796024090109,0.03395318139121858,-0.04697658464059845,0.3771817214912242
2.62,-0.18204561494344024,0.10893413144086005,0.03300841653897189,-0.04743800434758296,0.3606506089259962
2.64,-0.17980227450406122,0.11535193881658554,0.03205791016156252,-0.047561871121612344,0.3451986149789926
2.66,-0.17743338837582212,0.12149206106566336,0.031107766874449803,-0.04741174002286965,0.3307800026344918
2.68,-0.17494431268764335,0.1273740438673544,0.030162886212369212,-0.04704453834606202,0.31733338933064725
2.7,-0.17234002606245083,0.13301605968587044,0.02922709603010194,-0.04651051444504099,0.30478660723575507
2.72,-0.16962515875779627,0.13843475322584764,0.028303285069831957,-0.04585336514471761,0.2930608263773712
2.74,-0.16680402415740986,0.14364515865486227,0.027393531533419068,-0.04511050154377233,0.28207398960251145
2.7600000000000002,-0.16388065130837123,0.14866067577873832,0.026499225253300295,-0.04431341785659647,0.27174361551102516
2.7800000000000002,-0.16085881744328018,0.15349309352678744,0.025621181715179523,-0.04348813267345586,0.26198902977240607
2.8000000000000003,-0.15774207964749576,0.15815265032572895,0.024759746752461474,-0.04265567653875586,0.25273308710108083
2.82,-0.1545338050276155,0.16264812217173402,0.023914891211465887,-0.04183260398823549,0.24390344607762202
2.84,-0.1512371989090457,0.16698693041699195,0.023086295283939677,-0.04103151209824874,0.2354334573697898
2.86,-0.14785533073850898,0.17117526244496623,0.022273422526173287,-0.04026155115367237,0.22726272308923723
2.88,-0.14439115749282755,0.1752181994981698,0.021475583839473174,-0.03952891622038568,0.2193373813331884
2.9,-0.14084754449981882,0.17911984693053493,0.020691991882370857,-0.038837311211199294,0.21161016567813332
2.92,-0.13722728366236037,0.18288346307479536,0.01992180652822742,-0.03818837946804287,0.20404028474554964
2.94,-0.13353310914447333,0.18651158373925888,0.019164172080061086,-0.03758209696337201,0.1965931621403798
2.96,-0.1297677106305435,0.19000614007675226,0.018418247014358156,-0.037017125971080686,0.18924007222825281
2.98,-0.12593374430744594,0.19336856820283854,0.017683227053736303,-0.03649112849669491,0.181957702492125
3.0,-0.1220338417462128,0.196599909484176,0.016958362370498383,-0.03600103991583281,0.17472766868921022
3.02,-0.11807061687674471,0.19970090087618278,0.016242969704662227,-0.03554330417774187,0.16753600478597436
3.04,-0.11404667125756784,0.2026720550681708,0.01553644014571312,-0.03511407261639982,0.16037264573190121
3.06,-0.10996459784429401,0.20551373050070787,0.014838243281253919,-0.03470936890395863,0.15323091757275595
3.08,-0.10582698345662862,0.20822619156144245,0.014147928361512728,-0.03432522300789222,0.14610704621668813
3.1,-0.10163641013571977,0.21080965944939625,0.013465123069359009,-0.033957777200186945,0.1389996933547843
3.12,-0.09739545557242889,0.21326435433112426,0.01278953042362316,-0.03360336723850041,0.13190952559444177
3.14,-0.09310669277366858,0.21559052950224006,0.012120924281194961,-0.033258581817508306,0.12483882077438695
3.16,-0.08877268911909203,0.21778849832130584,0.011459143842256126,-0.03292030329352962,0.11779111367353307
3.18,-0.08439600494480219,0.21985865470622654,0.010804087504370357,-0.03258573253456604,0.1107708818774529
3.2,-0.07997919177492353,0.22180148798177277,0.010155706355970016,-0.03225240055647216,0.10378327139855374
3.22,-0.07552479030628957,0.22361759284582883,0.009513997548715528,-0.031918169387282626,0.0968338607303915
3.24,-0.07103532823648483,0.22530767518599518,0.008878997741692594,-0.03158122436691052,0.08992846132368464
3.2600000000000002,-0.06651331801130167,0.2268725544312629,0.00825077676868023,-0.03124005984774107,0.08307295197285372
3.2800000000000002,-0.061961254554512214,0.22831316306907004,0.007629431642829251,-0.030893460020580348,0.07627314426958776
3.3000000000000003,-0.05738161303083357,0.22963054389906712,0.007015080980961757,-0.03054047635591261,0.06953467608797008
3.3200000000000003,-0.05277684668214775,0.23082584553378915,0.006407859902158877,-0.03018040292701163,0.06286292998978497
3.34,-0.048149384767447734,0.2319003165951416,0.005807915432089138,-0.02981275067246125,0.05626297345670767
3.36,-0.0435016306286046,0.2328552989957249,0.005215402425330979,-0.02943722146333787,0.0497395179481646
3.38,-0.03883595989685005,0.23369222063676884,0.00463048000241127,-0.02905368266607328,0.04329689393216684
3.4,-0.034154718848773566,0.23441258780071167,0.004053308486047533,-0.028662142736488736,0.03693903922586089
3.42,-0.029460222915579298,0.23501797746686867,0.0034840468117710494,-0.028262728243709227,0.030669498199764382
3.44,-0.024754755345235347,0.23551002973357352,0.0029228503813482783,-0.027855662604185948,0.02449142963334474
3.46,-0.020040566013892303,0.23589044048984367,0.002369869322851778,-0.02744124670506618,0.018407621250544993
3.48,-0.015319870380450414,0.2361609544440472,0.001825247118519159,-0.027019841511568506,0.012420509204455036
3.5,-0.01059484857632197,0.23632335858614714,0.001289119560363973,-0.02659185268357774,0.006532201014616597
3.52,-0.005867644621175295,0.23637947613367574,0.0007616139935768217,-0.026157717170978423,0.0007445006838211415
3.54,-0.0011403657546726858,0.23633116098938403,0.00024284880881783296,-0.02571789171385175,-0.004941065069598525
3.56,0.0035849181261550112,0.23618029272020585,-0.00026706685367850445,-0.025272843141112066,-0.010523220335444174
3.58,0.008306174934294233,0.23592877205242346,-0.0007680332228908237,-0.024823040338027735,-0.016000913988161662
3.6,0.013022065159309171,0.23679648600383604,-0.0012619227429991975,-0.028022700185707683,0.3209730207770806
